H2O Density=1. Thickness=1. microns
 Photon Energy (eV), Transmission
    500.00      0.88570    
    576.00      0.19348    
    652.00      0.29716    
    728.00      0.39619    
    804.00      0.48736    
    880.00      0.56563    
    956.00      0.63008    
    1032.0      0.68567    
    1108.0      0.73165    
    1184.0      0.76961    
    1260.0      0.80106    
    1336.0      0.82750    
    1412.0      0.84956    
    1488.0      0.86811    
    1564.0      0.88400    
    1640.0      0.89749    
    1716.0      0.90897    
    1792.0      0.91889    
    1868.0      0.92746    
    1944.0      0.93486    
    2020.0      0.94127    
    2096.0      0.94690    
    2172.0      0.95186    
    2248.0      0.95622    
    2324.0      0.96008    
    2400.0      0.96350    
    2476.0      0.96655    
    2552.0      0.96927    
    2628.0      0.97171    
    2704.0      0.97390    
    2780.0      0.97588    
    2856.0      0.97766    
    2932.0      0.97928    
    3008.0      0.98074    
    3084.0      0.98208    
    3160.0      0.98329    
    3236.0      0.98440    
    3312.0      0.98542    
    3388.0      0.98635    
    3464.0      0.98721    
    3540.0      0.98800    
    3616.0      0.98872    
    3692.0      0.98939    
    3768.0      0.99001    
    3844.0      0.99059    
    3920.0      0.99112    
    3996.0      0.99162    
    4072.0      0.99208    
    4148.0      0.99250    
    4224.0      0.99290    
    4300.0      0.99327    
    4376.0      0.99362    
    4452.0      0.99394    
    4528.0      0.99424    
    4604.0      0.99452    
    4680.0      0.99479    
    4756.0      0.99504    
    4832.0      0.99527    
    4908.0      0.99549    
    4984.0      0.99569    
    5060.0      0.99589    
    5136.0      0.99607    
    5212.0      0.99624    
    5288.0      0.99640    
    5364.0      0.99655    
    5440.0      0.99670    
    5516.0      0.99684    
    5592.0      0.99696    
    5668.0      0.99709    
    5744.0      0.99720    
    5820.0      0.99731    
    5896.0      0.99742    
    5972.0      0.99752    
    6048.0      0.99761    
    6124.0      0.99770    
    6200.0      0.99779    
    6276.0      0.99787    
    6352.0      0.99794    
    6428.0      0.99802    
    6504.0      0.99809    
    6580.0      0.99816    
    6656.0      0.99822    
    6732.0      0.99828    
    6808.0      0.99834    
    6884.0      0.99839    
    6960.0      0.99845    
    7036.0      0.99850    
    7112.0      0.99855    
    7188.0      0.99859    
    7264.0      0.99864    
    7340.0      0.99868    
    7416.0      0.99872    
    7492.0      0.99876    
    7568.0      0.99880    
    7644.0      0.99884    
    7720.0      0.99887    
    7796.0      0.99891    
    7872.0      0.99894    
    7948.0      0.99897    
    8024.0      0.99900    
    8100.0      0.99903    
