 N2 Density=0.94 Thickness=1. microns
 Photon Energy (eV), Transmission
    500.00      0.16147    
    576.00      0.27036    
    652.00      0.38549    
    728.00      0.48704    
    804.00      0.57376    
    880.00      0.64610    
    956.00      0.70421    
    1032.0      0.75153    
    1108.0      0.79022    
    1184.0      0.82163    
    1260.0      0.84732    
    1336.0      0.86888    
    1412.0      0.88667    
    1488.0      0.90144    
    1564.0      0.91386    
    1640.0      0.92430    
    1716.0      0.93313    
    1792.0      0.94072    
    1868.0      0.94724    
    1944.0      0.95283    
    2020.0      0.95766    
    2096.0      0.96188    
    2172.0      0.96557    
    2248.0      0.96881    
    2324.0      0.97166    
    2400.0      0.97418    
    2476.0      0.97642    
    2552.0      0.97841    
    2628.0      0.98018    
    2704.0      0.98177    
    2780.0      0.98320    
    2856.0      0.98448    
    2932.0      0.98564    
    3008.0      0.98669    
    3084.0      0.98764    
    3160.0      0.98850    
    3236.0      0.98929    
    3312.0      0.99001    
    3388.0      0.99066    
    3464.0      0.99126    
    3540.0      0.99182    
    3616.0      0.99232    
    3692.0      0.99279    
    3768.0      0.99322    
    3844.0      0.99362    
    3920.0      0.99398    
    3996.0      0.99433    
    4072.0      0.99464    
    4148.0      0.99493    
    4224.0      0.99521    
    4300.0      0.99546    
    4376.0      0.99570    
    4452.0      0.99592    
    4528.0      0.99612    
    4604.0      0.99632    
    4680.0      0.99650    
    4756.0      0.99666    
    4832.0      0.99682    
    4908.0      0.99697    
    4984.0      0.99711    
    5060.0      0.99724    
    5136.0      0.99737    
    5212.0      0.99748    
    5288.0      0.99759    
    5364.0      0.99769    
    5440.0      0.99779    
    5516.0      0.99789    
    5592.0      0.99797    
    5668.0      0.99806    
    5744.0      0.99813    
    5820.0      0.99821    
    5896.0      0.99828    
    5972.0      0.99835    
    6048.0      0.99841    
    6124.0      0.99847    
    6200.0      0.99853    
    6276.0      0.99858    
    6352.0      0.99863    
    6428.0      0.99868    
    6504.0      0.99873    
    6580.0      0.99877    
    6656.0      0.99882    
    6732.0      0.99886    
    6808.0      0.99890    
    6884.0      0.99893    
    6960.0      0.99897    
    7036.0      0.99900    
    7112.0      0.99904    
    7188.0      0.99907    
    7264.0      0.99910    
    7340.0      0.99913    
    7416.0      0.99915    
    7492.0      0.99918    
    7568.0      0.99921    
    7644.0      0.99923    
    7720.0      0.99925    
    7796.0      0.99928    
    7872.0      0.99930    
    7948.0      0.99932    
    8024.0      0.99934    
    8100.0      0.99936    
